##TITLE=5-fluoro EDMB-PICA  (Lot# 0588529-40)
##JCAMP-DX=5.01  $$ Nicolet v. 1
##DATATYPE=INFRARED SPECTRUM
##ORIGIN=SWGDRUG 15 May 2024
##OWNER=SWGDRUG
##LONGDATE=2022/01/12
##TIME=22:37:12
##SPECTROMETER/DATA SYSTEM=Nicolet iS10
##DATA PROCESSING=
Retrieved from a Library
Subtraction or Addition
Multiplied by a scalar
##COMMENTS=
Number of sample scans: 32
Collection length: 47.68 sec
Sample gain: 0.0
Number of background scans: 32
Background gain: 4.0
Sample spacing:  0.000
Number of scan points: 16672
Resolution points: 8192
Number of FFT points: 65536
Apodization: N-B strong;
Phase correction: Mertz;
Laser frequency: 15798.67 cm-1
Number of rejected sample scans: -1
Number of rejected background scans: -1
##XUNITS=1/CM
##YUNITS=ABSORBANCE
##FIRSTX=649.920715
##LASTX=3999.808838
##FIRSTY=0.058440
##MAXX=3999.808838
##MINX=649.920715
##MAXY=1.000000
##MINY=0.000000
##XFACTOR=1.000000
##YFACTOR=1.000000E-09
##NPOINTS=1738
##DELTAX=1.928548
##ZPD=8192
##XYDATA=(X++(Y..Y))
649.921 58439652 58749588 59847244 61317132 63274184 65485360 68186920 
663.420 71749928 77076824 82080416 87152064 95304464 104826736 115217840 
676.920 125883192 134761664 140305328 142266624 141677616 138280048 
688.491 131257952 120992288 109657704 99537528 92300592 87986064 85810648 
701.991 85205904 86159896 88578536 92397168 98036648 106411208 118217248 
715.491 132294264 143421072 144233408 136018016 130465168 133234768 
727.062 143844768 160924256 184530240 216511312 259346576 311279520 
738.633 371017408 435022592 500909024 610320768 811476544 1000000000 
750.204 958996800 756455488 555287296 393325024 280916256 217380400 
761.775 191239424 191912576 223586384 297777728 389630720 432715840 
773.346 424273088 348706528 218807680 122047368 76804384 60214112 54767976 
786.846 53645892 54490144 57685276 63882104 75319632 93436688 115463896 
800.346 130347040 127604008 109855160 90885584 78910744 74592024 74724240 
813.846 76598576 78471736 80131808 80014752 77708992 76452128 79706960 
827.345 88596440 105982056 135935888 177747296 220540704 252466496 253991968 
840.845 208553344 147411520 107722072 90947176 87428320 92376016 106005424 
854.345 130830568 163860832 185796848 182158624 170770912 172775952 
865.916 187675376 202793472 200599248 172558496 132913544 101796592 83996328 
879.416 75328400 71723552 70633480 70173168 69956176 70383920 71911952 
892.915 74397176 77111904 79992760 84257368 90010744 96827552 103524984 
906.415 107699368 106568376 103060864 103292016 109071128 116745832 
917.986 123806592 131652000 140019456 142116352 134968032 126272232 
929.557 123988688 130027936 143651104 161612848 180980832 198781440 
941.128 205795392 185018496 146798752 122865552 118176560 121121168 
952.700 125987752 133550464 143932288 155000640 166833024 183574080 
964.271 211625520 252215360 289453024 309793024 323553888 324991616 
975.842 297375424 250105984 204461488 172094624 152762912 142897904 
987.413 140779696 145407152 156283040 170246320 179391472 182960512 
998.984 191081728 208285456 231134656 254606064 278556032 308705440 
1010.555 335257984 325438912 296270976 294213984 315561088 335456352 
1022.127 339320320 327176288 311237184 307351424 318384160 323223168 
1033.698 303040896 272193632 249589504 235281696 225163824 224806752 
1045.270 237308512 252346928 250259312 222869632 186896320 163460736 
1056.841 157986096 165278400 177708688 187723840 189649872 182586960 
1068.413 171020272 159699232 149254816 140811840 137299088 138242944 
1079.984 139556544 139399280 139985904 145165456 158513040 182342080 
1091.556 212932464 234193184 232893136 217905952 203709472 195883840 
1103.127 194952704 200539088 211696672 227650880 247615888 268691456 
1114.699 289199200 315369440 346888128 364938880 364367008 370120864 
1126.270 401370720 447034688 470903072 441952512 371535008 298737600 
1137.842 248329968 223166960 217320112 225391104 245549248 279669920 
1149.413 331458592 401043072 475276288 532857536 573403648 621544960 
1160.985 674223040 698111296 689041600 671780672 658734336 649553728 
1172.557 636886592 599091584 525951872 443355744 382773568 357186176 
1184.128 363188032 378568192 369706848 327907136 282198464 262675488 
1195.700 276545984 318392288 382403008 463482336 548494720 604479680 
1207.271 598377984 548596992 504772064 484027040 462920736 418262496 
1218.843 358780928 307608128 275562752 261068976 260948928 274892672 
1230.414 300911712 328299200 337795040 317713024 277261856 233750768 
1241.986 197809728 174777344 168319888 178449056 198075600 212856624 
1253.557 209732192 189638704 165958624 149391696 140475008 133963584 
1265.129 126392824 119530488 112536976 102950384 93718320 88282008 86308928 
1278.629 86693104 88735472 92233536 96827000 102750288 111090832 123402704 
1292.129 140106048 158910736 175299648 187182464 197118416 210927456 
1303.701 234311872 270744224 317367232 361478240 385917824 381356672 
1315.272 357399424 333642208 325480192 336140032 356749760 374918368 
1326.844 381143904 371121984 345493792 307468096 263662880 221229904 
1338.415 187221632 167204128 159395696 152430608 144842464 139674784 
1349.987 134290016 131041336 136046320 151703312 178778496 220047488 
1361.558 269439872 310558688 330506272 327320608 319598016 338539136 
1373.130 389832800 436976224 435922912 418025280 408911328 389744960 
1384.701 357045664 331767520 340615424 381943552 435862240 474071232 
1396.273 449314400 355961280 248964288 182391616 134817280 102165152 
1407.844 85451656 75174904 68715888 66473760 67414928 69253632 70712232 
1421.344 76820808 84664424 95322648 110957328 132347672 156545104 173410864 
1434.845 178755472 173729984 181261216 198998416 221501120 249427392 
1446.416 287052256 329567328 344247072 329131200 318938336 333132128 
1457.988 380432352 420046656 452319488 497299456 513026848 453770848 
1469.559 370142240 298929408 265909792 282056704 317277472 350201888 
1481.131 346374560 302247968 263373680 255135744 279288096 334880832 
1492.702 400347616 478790656 584906432 689592384 757295040 772884736 
1504.274 737487168 585161856 425168704 356344704 304251232 275205440 
1515.845 260110224 255323264 262534880 283937696 323331296 381654912 
1527.417 443559296 482976416 479929888 414996160 336950048 291116864 
1538.988 226709552 161421184 134359856 113329608 100926024 92001504 82058512 
1552.489 75139888 67411320 64478412 55484864 45410992 48940328 49982656 
1565.989 52804516 61622384 78984224 90399976 86355264 63405260 46468708 
1579.489 43536100 41493332 40055036 39947748 40523680 41715588 43528976 
1592.989 47088672 52140672 60010584 70018936 81620848 93834312 107482768 
1606.489 118957600 125445856 126839280 128690872 131305664 132017136 
1618.061 139035696 157855984 182750128 222188688 270682112 340175136 
1629.632 425595136 513350976 588926464 647603328 655487744 626285056 
1641.204 562883200 492335968 411251104 303488992 244137792 216591696 
1652.775 157298528 115588768 106521120 96305952 87982448 78251528 73057128 
1666.275 71953032 67167768 58180896 55052408 51216472 45197924 44647916 
1679.775 45194472 47009028 45636396 46047184 50505448 50422308 50186744 
1693.276 51684852 50472872 51106208 53699676 52906728 60694504 68119072 
1706.776 78976992 93722216 112895520 135613584 164100848 203826480 275811552 
1720.276 371610208 502991488 640856640 666921472 565098560 414391488 
1731.847 303901920 196347520 134785984 110477856 82515144 63738376 51807344 
1745.347 43059624 36822336 30582262 24831810 22809698 22328506 19765484 
1758.848 19204480 17830304 15518782 16159359 16475210 16039757 16094808 
1772.348 13125629 12534745 13330503 13905474 13304290 13147089 13392619 
1785.848 13386781 14837608 16332706 15379139 14864353 16102763 16208060 
1799.348 14877497 12568790 11260742 10555675 10066091 9302801 8093364 
1812.848 7531260 7816905 7831967 8496381 9466567 10530644 9939413 9682739 
1828.277 9271032 6514286 5916158 6172836 5839474 5519399 5719969 6088999 
1843.705 4100187 3219058 3870838 3816054 3850205 4022207 4216603 4203375 
1859.134 4189383 4332518 4697597 5392855 5483652 4274601 4552808 5791333 
1874.563 6429556 7054659 7499501 7570788 7162472 6695200 6601393 6202589 
1889.992 5094526 5573381 6047901 6219212 6662256 7361425 8308063 10019286 
1905.420 12068280 13380083 12728184 11486788 10402403 9304294 7270764 
1918.920 5638964 5605259 5156864 4938636 5097674 5648922 6446805 7056196 
1934.349 7919690 8571133 8846324 8638628 7092594 5351785 4620241 3637364 
1949.778 2850394 2096539 1669640 1525911 1607980 1317545 1601372 1810883 
1965.207 1940279 1297398 1169458 1428511 2229801 3039566 4417976 5174697 
1980.635 4756660 3572089 3014547 2979864 3190789 2970987 2590870 2296299 
1996.064 2330491 2157217 1785318 1007166 439738 0 491804 877803 1096900 
2013.421 1615749 2460394 1619476 942286 1145670 1268918 892727 830695 524892 
2030.779 1205143 2362802 3494353 3599889 3175846 2748854 2389420 1667090 
2046.207 2010398 2558698 2908578 2873038 3060351 2373830 1696402 1531138 
2061.635 1877065 2410267 2578852 2518087 3081674 3658060 3850933 3643309 
2077.063 3629081 3580504 3466488 3342973 3532547 3604808 3452150 3264643 
2092.490 3243483 3092937 3250966 3473866 3765621 3858640 3874707 3934190 
2107.918 3935869 3808412 3880888 3785863 3245010 2774267 2760220 2537374 
2123.346 2369111 2133814 1813371 1481191 1361316 1355233 1711746 1993476 
2138.774 2516504 2553536 2340103 2204422 2063752 1671378 1458517 1074619 
2154.201 800794 783095 2627885 4505232 5191590 5150702 5294427 5141908 
2169.629 4534662 3779407 3916140 4112768 4283649 4319969 4613143 4609053 
2185.057 4621789 4696190 4723858 4443258 4215773 4135828 3890833 3907723 
2200.485 4461864 4303701 4213003 4179592 4062855 4189051 4329033 4138579 
2215.912 4130439 4096921 4272233 4462719 4573007 4471180 4569220 4627719 
2231.340 4856220 5004922 4794151 4664497 5000052 5207271 5224469 5152243 
2246.768 5057153 5064748 5269503 5306640 5198559 5105084 5165903 4942289 
2262.196 4904093 5109579 5460376 5652668 5755743 5757686 5929133 6074805 
2277.623 6225274 6528181 6952038 7177960 7182014 7016989 6784098 6607418 
2293.051 6591783 6718568 6958860 7153244 7328829 7496552 7742705 7897725 
2308.479 7971941 7843305 7649513 7666300 7912945 8176112 8334955 8432405 
2323.906 8220879 7599883 7166513 6835194 6624957 6692308 6786913 6831459 
2339.334 6892366 6699046 5891678 4663195 5674034 8245763 9253201 8733373 
2354.762 8346529 8008788 7585018 6936369 6193478 5519944 5338192 5297750 
2370.190 5239088 5279740 5376666 5440212 5714727 6053044 6501620 7003101 
2385.617 7382202 7529155 7566611 7501305 7242355 7005699 6964286 6825384 
2401.045 6604020 6450801 6484586 6594755 6657811 6650103 6663314 6660727 
2416.473 6673376 6747565 6899000 7002930 6972637 6840101 6792098 6792663 
2431.901 6821755 6911740 7110322 7213860 7291858 7432311 7535200 7584248 
2447.328 7629256 7679990 7807204 7841467 7851978 7829594 7866893 7942197 
2462.756 7993779 8052313 8263179 8432535 8566303 8752855 8981960 9094760 
2478.184 9155855 9170794 9126174 8994010 8920105 8918257 8879278 8858994 
2493.612 9052443 9244866 9461790 9649985 9798264 9877022 9816419 9715646 
2509.039 9638370 9504478 9436465 9451736 9433750 9342815 9327943 9399534 
2524.467 9458855 9563897 9755027 9888754 9941823 9976377 10111249 10132022 
2539.895 10066944 9929535 9839479 9837320 9917829 9969561 9936122 9830301 
2555.323 9706207 9649925 9692279 9847710 10048655 10065274 10110934 10213197 
2570.750 10347906 10419461 10490775 10637975 10762686 10815412 10980179 
2584.250 11184361 11296421 11381934 11503609 11606173 11704255 11789564 
2597.749 12009264 12247119 12338352 12315333 12302513 12257971 12137392 
2611.248 11962947 11894241 11851965 11821494 11827540 11828517 11723381 
2624.747 11648915 11710541 11848500 11941026 12080026 12190804 12208635 
2638.247 12154208 12116575 12095125 12065887 12011091 11926321 11793507 
2651.746 11665808 11533791 11453125 11389680 11328033 11292254 11307166 
2665.245 11384793 11567766 11744433 11932517 12156109 12427491 12785749 
2678.744 13202891 13621694 14047386 14405241 14628144 14758006 14883021 
2692.244 15007814 15085218 15057110 14964704 14764577 14463551 14156742 
2705.743 13937199 13822579 13833063 13968802 14193784 14334038 14322165 
2719.242 14258677 14275337 14407725 14710792 15028437 15249395 15382731 
2732.741 15450119 15508971 15547692 15538259 15533262 15549634 15543374 
2746.241 15541138 15620114 15724530 15899584 16105995 16242467 16244328 
2759.740 16109129 15892908 15650561 15405302 15249174 15175808 15145401 
2773.239 15216170 15404853 15607635 15884412 16323816 16922776 17654988 
2786.739 18442420 19079744 19454892 19560986 19496978 19372478 19347318 
2800.238 19449736 19714254 20090766 20511706 20870660 21274470 21702786 
2813.737 22113756 22487314 22863138 23340616 23908986 24593816 25400820 
2827.236 26219870 27126452 28139742 29325252 30780742 32596000 34843152 
2840.736 37589088 40742384 43878520 46457884 48510288 50756040 54207084 
2854.235 59394656 65916188 72493896 77579632 80287120 81481872 82712480 
2867.734 84372416 85805592 86313304 85505312 83541056 81035752 78890864 
2881.233 77779472 78062520 79800856 82951224 87395928 92781824 98540136 
2894.733 104260064 109574080 114109384 117694600 120589712 123161248 
2906.303 125517488 127310856 128039088 127347272 125262528 122594360 
2917.874 120600680 120332240 122276040 126628008 133582280 142637040 
2929.445 152334176 161146384 168278576 172931296 173745248 170419792 
2941.016 165589280 163241248 165781936 172791296 181763168 189423648 
2952.587 194242288 196912544 198369104 198550800 197362544 195194704 
2964.157 192912704 191312384 190673664 190436240 189290192 185228640 
2975.728 176753616 163950224 148659328 132874816 117650000 103340248 
2987.299 90280888 78776848 68968360 60892800 54606864 49824856 45969480 
3000.798 42703612 39879812 37195256 34436908 31351772 28092472 25187322 
3014.298 22929176 21377288 20572068 20198770 19973254 19694888 19170030 
3027.797 18357372 17237148 16156932 15541135 15197890 15143855 15387946 
3041.296 15820999 16437165 17311176 18232906 19129182 19939506 20343068 
3054.795 20000396 18900380 17489728 16167704 15188287 14646923 14554759 
3068.295 14746073 15111182 15619485 16331401 17233094 17989116 18431796 
3081.794 18370054 17868266 17331612 17184594 17684560 19129804 22017076 
3095.293 26645898 32543446 37309548 38355796 35569628 30491496 25021548 
3108.792 20436180 17089446 14801433 13211955 12100541 11303966 10592144 
3122.292 9948825 9563154 9295762 9001796 8812255 8651161 8529386 8422162 
3137.719 8316725 8214559 8120615 8061280 8026073 7991737 7966606 7892988 
3153.147 7808238 7808202 7864360 7881490 7933293 8063222 8123540 8191326 
3168.575 8265137 8278938 8237204 8247751 8221917 8027208 7924109 7890519 
3184.003 7761504 7620526 7564003 7477422 7404726 7358985 7300173 7202643 
3199.430 7098254 7093341 7165950 7226958 7282700 7215688 7250693 7326356 
3214.858 7382309 7564348 7573570 7476388 7511772 7614256 7596030 7429385 
3230.286 7323052 7328270 7365603 7366282 7363005 7437586 7605600 7605188 
3245.714 7593396 7722738 7779057 7883181 8030683 8151526 8406734 8682099 
3261.141 8941461 9212334 9330935 9429365 9516633 9443327 9304070 9177091 
3276.569 8988450 8836360 8724067 8563166 8401108 8311734 8270690 8141582 
3291.997 7978361 8034033 8042090 7903810 7853334 7832931 7893136 8027346 
3307.425 8044142 8117304 8181210 8184812 8300120 8345479 8369563 8528934 
3322.852 8669975 8700121 8742796 8904811 9100729 9300893 9486714 9541560 
3338.280 9657320 9817836 10074793 10264261 10358908 10531261 10725765 
3351.779 11049756 11351374 11558075 11812734 12010810 12241770 12484756 
3365.279 12667391 13003169 13443849 13864088 14202774 14525196 14827556 
3378.778 15199721 15614758 15920661 16213294 16568465 17055078 17594692 
3392.277 18027754 18610788 19049970 19469068 20140634 20843780 21563508 
3405.776 22215732 22831950 23571108 24456696 25415394 26569820 27972196 
3419.276 29332892 30894524 32950364 35214760 37459340 39476836 41055524 
3432.775 42049260 42303560 41547164 39713700 36775524 33049456 29063054 
3446.274 24368012 20397888 17556488 15127711 13332016 12004343 11005190 
3459.773 10069247 9156062 8477760 7883449 7397978 7139088 6912865 6668663 
3475.201 6389840 6375045 6211657 5653148 5496206 5654148 5374835 5205572 
3490.629 5456430 5626700 5425902 5218131 5568418 5734556 4918575 4651933 
3506.057 5309472 5130743 4573556 4650258 4940967 5127282 5143071 5464948 
3521.484 5363228 4843537 4798453 4269929 3994463 4472122 4986407 4639240 
3536.912 4389899 4845122 5423365 5542603 4513613 3740004 4609513 4884655 
3552.340 4000401 4257457 5016120 5229480 5266441 6371608 7157813 4116107 
3567.768 1581732 3222713 4671264 4835654 4747515 4799703 4821795 5559680 
3583.195 7147366 6674036 3079543 3137064 5516517 5492340 4373002 4598631 
3598.623 4711855 4198468 5245435 6937072 6228970 4557763 5216784 4760295 
3614.051 4869258 6227430 4173535 2345810 4377538 7438828 9582186 5076998 
3629.479 849069 3551784 4225239 4654459 5164385 5412723 5974043 8100591 
3644.906 10472810 8130345 1996147 995039 5390097 5766744 3395745 4409765 
3660.334 5279972 5766143 7294473 9409619 7818491 4702675 8311889 6709955 
3675.762 882948 2859112 4196621 5594333 7490627 9505574 7321753 2994209 
3691.189 2424692 4300275 5555384 6458989 6997170 4865891 4328232 6607869 
3706.617 8570002 8027108 3800627 1807863 4407328 6545875 7033377 6783495 
3722.045 5940035 5437350 4749289 6988346 9612087 9081325 6314386 2257711 
3737.473 3783786 7861183 10830127 6200109 4355770 8787174 6330071 1584273 
3752.900 2736292 6117132 6269984 4381390 4796091 7089187 6600887 6656723 
3768.328 5513436 3742700 5154899 6839060 7822461 6366808 5036450 6322165 
3783.756 5960779 5570222 6056025 6552884 7482992 8591626 7734678 8739013 
3799.184 8971998 4265793 6009012 6992249 3794052 5401348 8284471 10424322 
3814.611 8217140 7314724 9098426 4211873 4082488 6918187 6682725 7756031 
3830.039 8293067 8196444 9330751 8425456 5314354 4761294 5222829 5135516 
3845.467 6996570 10254627 13428565 10863101 1042266 2036169 6161010 8834384 
3860.895 9240615 7523591 6811412 9471354 7434048 5603309 6316629 5959861 
3876.322 8904430 9258593 6922425 8333050 7261315 5590932 8565604 7748352 
3891.750 5499549 7372468 10020558 10243946 8683897 7255464 4868133 4689699 
3907.178 6594685 7704861 8169712 9066251 8831680 7377445 7182435 8037093 
3922.605 8026086 7046924 8015513 8743960 7684526 6394058 6874592 7678367 
3938.033 8209656 8357985 7227109 7294737 7964781 7180203 6641550 6962626 
3953.461 7354941 7420003 7505603 7551632 7181100 7103115 7410768 7433462 
3968.889 7377784 7399795 7318640 7162901 7250091 7385278 7349890 7346574 
3984.316 7514905 7687964 7693560 7582614 7628087 7550637 7478621 7551103 
3999.744 7551103 
##END=
