##TITLE=4-(Trifluoromethyl) U-47700 HCl  (Lot# 0603861-7)
##JCAMP-DX=5.01  $$ Nicolet v. 1
##DATATYPE=INFRARED SPECTRUM
##ORIGIN=SWGDRUG 15 May 2024
##OWNER=SWGDRUG
##LONGDATE=2021/06/28
##TIME=20:39:46
##SPECTROMETER/DATA SYSTEM=Nicolet iS10
##DATA PROCESSING=
Retrieved from a Library
Subtraction or Addition
Multiplied by a scalar
##COMMENTS=
Number of sample scans: 32
Collection length: 47.69 sec
Sample gain: 0.0
Number of background scans: 32
Background gain: 4.0
Sample spacing:  0.000
Number of scan points: 16672
Resolution points: 8192
Number of FFT points: 65536
Apodization: N-B strong;
Phase correction: Mertz;
Laser frequency: 15798.67 cm-1
Number of rejected sample scans: -1
Number of rejected background scans: -1
##XUNITS=1/CM
##YUNITS=ABSORBANCE
##FIRSTX=649.920715
##LASTX=3999.808838
##FIRSTY=0.073237
##MAXX=3999.808838
##MINX=649.920715
##MAXY=1.000000
##MINY=0.000000
##XFACTOR=1.000000
##YFACTOR=1.000000E-09
##NPOINTS=1738
##DELTAX=1.928548
##ZPD=8192
##XYDATA=(X++(Y..Y))
649.921 73237256 77936648 87683240 106940056 153004400 258535616 354144736 
663.420 288349248 165734400 93923952 56532644 52366284 51557972 51363632 
676.920 51611276 52513784 53188688 53911180 53854624 53839988 53683672 
690.420 54544572 55637500 56634004 58264700 60165016 61212804 62784412 
703.919 64671524 67096076 69711208 72535176 76246568 81350400 87008048 
717.419 92648664 98582248 107950744 123442744 149958672 194986832 259976064 
730.919 319009952 328617056 287118400 232698288 187987904 155012816 
742.490 129084840 108121928 92353976 81681432 74428184 70501808 69342888 
755.990 71212112 75610640 83617592 96757528 117097792 145259344 178324480 
769.489 204996160 199965824 155323760 115775792 106937952 112091664 
781.061 121290456 130791488 129599440 114253376 89987720 70709936 62273552 
794.560 60021284 59841592 60956852 62406284 64881684 68334384 72523704 
808.060 77851496 86403624 98910216 115220856 131658120 145177872 151952144 
821.560 144965664 125260816 108141672 103407192 108937080 122117280 
833.131 145499648 187644176 271410688 419284576 563119744 553861888 
844.702 411363104 276077312 215260704 225993216 259266912 257602928 
856.273 223840512 207602528 232246384 282449312 329326528 351786912 
867.844 348585920 327734304 301011136 287750752 295655968 300758784 
879.416 273498368 222313408 183983264 188814496 254435328 327134656 
890.987 289501696 177146896 101730024 71535096 60961072 57331992 56259336 
904.486 55607492 56395396 58509512 61977244 67296360 77113336 92916408 
917.986 113900248 130246120 131809104 119687992 102722840 86470080 74867376 
931.486 68677360 66754280 66594064 67825456 69856200 72686344 76324096 
944.985 81223336 87074848 95015288 106438312 124000808 149334384 179271776 
958.485 201122464 202987216 193261328 203970672 249760432 304900960 
970.056 316193856 267145328 201246944 156317280 133538352 124127320 
981.628 123129096 130043704 145426576 172742624 217821808 286420576 
993.199 364708032 403034176 365159488 284061120 211324208 167686864 
1004.770 149160832 148652384 162909344 192145728 234580064 309048768 
1016.341 448601440 587535424 529825696 332152832 205715792 163845552 
1027.912 146686240 134345040 126671944 129772424 143060096 158501312 
1039.484 177706816 204406416 238954960 277695264 316519648 347593824 
1051.055 356813952 350221024 347648608 360847104 402983136 472318720 
1062.627 543617984 612177600 691666688 776253760 837244096 841556608 
1074.198 771431296 647323200 515132800 411409184 345585184 305098016 
1085.770 273841728 249380832 236507904 236421056 245828320 264122608 
1097.342 295237024 340633760 390404256 438001248 497788320 589795968 
1108.913 694670080 735320896 663600832 583506624 610116160 725279808 
1120.485 845782656 912479872 904050944 825110592 701033792 565604480 
1132.056 444377472 351075552 286928576 246975696 224139856 213594096 
1143.628 212164656 219518544 236907280 262856192 289207008 305576928 
1155.199 306171744 298033184 297320320 312792736 341028160 378388960 
1166.771 425076608 484780992 559786304 646315392 732836032 802697664 
1178.342 837575488 826935488 769632960 670992192 541257600 406480512 
1189.914 299735456 235805072 206095920 192534288 183783760 173734496 
1201.485 155352480 129404184 103764824 85452976 75182112 70632624 69451552 
1214.985 70405656 71558456 72906744 76428640 85164752 99099352 112961048 
1228.486 117171328 109074504 95524848 84248976 77707632 75004560 73337424 
1241.986 71465104 69673904 69290680 70609096 73678960 78049632 84023664 
1255.486 91804880 102555696 118655992 140690768 157935664 161924800 
1267.057 164869872 185659808 223986832 252249840 239430400 195338304 
1278.629 155280192 134555888 127980368 129630744 136087248 145999872 
1290.200 159576080 176040800 193866880 212950048 231827936 249973056 
1301.772 273484256 311273600 367877408 444808480 539386112 653950272 
1313.344 791884800 925664384 1000000000 979881472 906712832 853941632 
1324.915 818054912 740994304 605854208 465777728 360609888 300642208 
1336.487 275743616 261604480 238528448 229912544 235034080 232053296 
1348.058 208637024 178490032 160503024 158085920 163892000 170873040 
1359.630 172913200 164838096 148896976 143483440 141661984 142335840 
1371.201 150001344 162246112 181075584 209699664 237075200 256070944 
1382.773 267991360 284717888 305517568 330504992 361537728 394885792 
1394.344 418051008 431194432 432800512 421579584 419597184 407283488 
1405.916 384337280 363014912 327728384 274846368 223126032 182773104 
1417.487 146975584 108760608 99469672 98875128 101255048 113342752 124072280 
1430.987 129500328 135647536 148181968 167914368 189723792 202033424 
1442.559 210541088 223590800 236398448 238364128 234670016 226532592 
1454.130 227371008 223369952 204357936 215524400 238752784 258617344 
1465.702 272127104 289643392 309327136 315604608 300798720 291698528 
1477.274 278077408 269818144 252509232 236662544 224885856 203784144 
1488.845 167760480 128817696 117394696 110501840 90684104 77283344 74142512 
1502.345 79019592 88262928 87351568 81455680 93178472 101653312 112069640 
1515.845 117901816 122051656 130650728 122180112 117557664 103679240 
1527.417 80227248 69246408 66998936 55059960 51835928 61440836 63384272 
1540.917 48955068 48863068 46207624 49279124 51522640 50570840 54576828 
1554.417 57476120 66176100 61116728 47905000 62230888 71141016 80734152 
1567.917 92334712 102869808 126214776 156641776 172723872 164557104 
1579.489 148804096 128181560 118536048 122452864 134334496 148714608 
1591.060 161291296 169922064 175832064 185986048 202375584 224409760 
1602.632 253741232 293931936 344701088 406094656 477740032 560015552 
1614.203 639391936 649384256 593268608 582012288 601041792 638961792 
1625.775 658004096 617854912 550864384 498029792 446034368 329316544 
1637.346 241245568 210722992 180871568 160747472 145060048 107260136 
1648.918 98657336 107082032 81152960 58363328 63848840 63801756 61579844 
1662.418 51400132 46496664 49614476 46310564 34576376 35289728 35145348 
1675.918 28191762 30054210 31828512 35533824 27074882 18162776 23437016 
1689.418 22895878 24793338 30466646 28320944 25496400 25925162 15381851 
1702.918 21157364 20270992 16436432 17819410 19843780 22250128 23082750 
1716.419 17913916 9913924 13596675 16718015 15824517 17603756 19483402 
1729.919 20362888 22645814 14078888 12021276 18172784 16131321 16316684 
1743.419 16185874 17280422 17869298 15487455 10516337 12059716 15034658 
1756.919 12956359 14354178 14242989 10367724 13057259 14642094 14522342 
1770.419 15354156 9138055 8252931 10983560 13004903 11789378 11043628 
1783.919 11501376 10465926 13057232 15595769 11763474 8474363 10738456 
1797.419 12245672 12268334 10110269 10738267 12261846 13838345 13951946 
1810.919 11987996 10783050 11487556 10368029 10183995 10697732 12132588 
1824.420 10189143 10368145 11431931 7509199 8174786 10639166 10991164 
1837.920 10884849 12629408 15568976 12061737 10145119 11713541 12468403 
1851.420 13010089 13131130 13335315 13743100 13292854 13172396 13826555 
1864.920 15688537 15335214 10463336 9316539 11672230 12242479 12178283 
1878.420 12047095 12132665 11769688 11949646 13042921 13245855 10014117 
1891.920 10764915 11778062 11191075 10775968 11564087 11856971 12077141 
1905.420 12264046 12875416 12168190 12823454 13465480 14729625 14045764 
1918.920 13629306 15231532 13832001 13358343 15623652 15859464 15451015 
1932.421 13681698 12621536 12974676 14186824 14745294 13728508 12420162 
1945.921 13212324 13880439 14888912 14292065 14246308 13644949 14641439 
1959.421 15533173 16411021 15311291 15772473 14862889 16664421 17325334 
1972.921 18878808 19763134 20713002 20106112 20381922 20417158 20970254 
1986.421 20391592 20645926 19974738 18724882 17178064 17324348 16933990 
1999.921 16424295 13977526 13664588 14390390 15889347 14179634 12900429 
2013.421 11583233 11646048 11192538 12529803 12103639 11976549 12091478 
2026.921 12936371 11365908 10715485 10073709 12052367 13352180 12460603 
2040.422 10708391 11929597 12080491 12417656 13415957 15273465 14099929 
2053.921 13953555 14773185 14996593 13531093 12964008 13148706 13896398 
2067.420 14600776 14826989 14201493 14411497 14398078 13837828 12534249 
2080.920 12303153 12601004 13214277 13446885 13321104 12395971 12122885 
2094.419 12198270 13182878 13942278 14428467 14494875 14891923 15102324 
2107.918 14769871 13706397 13595046 13391388 13054091 12388147 12117193 
2121.417 11574148 11074719 10512172 10468604 9881683 8941019 8139118 9606324 
2136.845 11363951 12021685 10283613 9137534 8601613 9776684 10120956 9552019 
2152.273 8409166 8307907 8291671 13942209 20248458 21664592 20429816 
2165.772 19720296 19285078 19968834 18388244 17349718 17335272 17499632 
2179.271 16383497 17308414 19417918 21358698 20874124 20157740 18944352 
2192.771 18336054 18621360 19138528 18339042 18368932 17993638 17531802 
2206.270 17046780 16713219 16180819 16189046 16146354 17157656 17375608 
2219.769 17303416 16902494 17438680 17883604 18629814 19209688 19154002 
2233.269 19000708 19273676 18816452 18452928 18064914 18278232 18534970 
2246.768 19272624 19571994 19639568 19477366 19835276 20087802 20646844 
2260.267 21113946 21508094 21877652 22725812 23447992 23861848 24173786 
2273.766 24719980 24853104 25157262 25711176 26593904 27337306 27805106 
2287.266 27766352 27703914 27797388 28041972 28211954 28599382 28910594 
2300.765 29627720 30242216 30866416 31335746 31611390 31386196 31089804 
2314.264 31119328 31459908 31548936 31650778 31364120 30677708 30548234 
2327.763 30961294 30931006 30783432 31094466 31549278 31827972 32127690 
2341.263 31913154 31043152 29180680 31069302 36178584 38750696 38152344 
2354.762 36890656 35526352 34596360 34283304 34103224 33481874 33455692 
2368.261 33588492 34017300 34592444 35272972 36003248 37277264 38597616 
2381.760 40103132 41612140 43067288 44345988 45654472 46832320 47989692 
2395.260 48991768 49809864 50339896 50946628 51290828 51738516 52591744 
2408.759 53547492 54267324 55246244 56294180 57546608 58674828 59675572 
2422.258 60614152 61500104 62040808 62471748 62835424 63553988 64260624 
2435.758 64861700 65410732 66194496 66842644 67475712 68163600 68978872 
2449.257 69455552 69940984 70548496 71115208 71570592 72374544 73463000 
2462.756 74555920 75480744 76453720 77433888 78582024 79516944 80410328 
2476.255 81405616 82571896 83583360 84417280 84980120 85614960 86240920 
2489.755 87073040 87462656 87388928 86880816 85543080 83664040 82104560 
2503.254 81014768 80855440 81482000 82654424 83889320 85098976 86167832 
2516.753 87227608 87946496 88426824 88551248 88497864 88240504 88066720 
2530.252 87696920 87385344 87175880 87287160 87538016 87751208 87638424 
2543.752 87478712 87191104 87104552 87148424 87365584 87767376 88328696 
2557.251 88888632 89686336 90403296 91045808 91629448 92168120 92716736 
2570.750 93554472 94373816 95058544 95799528 96798920 97890504 99095632 
2584.250 100051848 100923176 101619016 102306832 103049744 104027944 
2595.820 104949064 105775888 106413744 107154192 108053312 108963960 
2607.391 109717832 110603296 111531704 112647280 113735312 114740920 
2618.962 115505144 115957304 116346288 116906976 117349896 117687752 
2630.533 118079360 118818616 119563520 120238056 120836976 121357648 
2642.104 121656176 121736872 121646960 121590200 121598648 121524992 
2653.674 121320224 121143208 120885776 120372120 119560016 118630616 
2665.245 117810672 117305032 116821368 116187144 115429328 114541040 
2676.816 113442864 112226472 110887672 109577408 108343744 107334264 
2688.387 106511800 105594032 104431648 103050352 101489792 100030888 
2699.958 98702056 97437320 96122264 94829976 93477976 92124184 90679776 
2713.457 89342024 88099528 87013728 86183400 85509424 84933504 84360112 
2726.956 83571192 82643080 81470240 80181368 78903416 77833008 76843824 
2740.455 75930808 75119936 74298712 73396776 72340992 71118352 69923648 
2753.955 68814232 67901056 67241656 66716680 66101312 65623992 65339112 
2767.454 65104744 64841376 64527280 64123392 63636640 63010232 62454596 
2780.953 62036632 61722596 61525280 61449276 61463992 61606868 61642236 
2794.452 61579460 61351680 61073432 60887536 60679360 60491612 60452916 
2807.952 60449272 60360184 60082656 59755128 59342128 58853896 58296764 
2821.451 57919164 57615284 57261480 57001024 56888020 56586320 56202080 
2834.950 55802240 55400752 54986440 54663636 54656448 55465540 56919760 
2848.449 58863112 61384536 64575164 68115584 71664560 75007464 77904728 
2861.949 79989000 81485168 82926184 85047064 88678784 94178008 100228480 
2875.448 104295088 104349416 100340176 93731048 86373912 79534424 74161680 
2888.947 70523968 68390176 67667904 68076192 68996120 70212072 71813584 
2902.447 73833472 75996224 78166288 80585088 83471736 86762024 90080880 
2915.946 93155544 96076032 98720376 101668632 105382616 110060496 115559232 
2929.445 122130384 130218328 140728640 154179472 169226976 182926240 
2941.016 191740976 193720064 190091440 184539488 180224352 177210832 
2952.587 173658640 167709616 159276016 149492304 139352816 129381032 
2964.157 120090016 111697360 104200024 97115432 90495936 84741544 79998080 
2977.657 75745128 71456488 67430448 64019932 61048656 58681248 57092548 
2991.156 56058120 55216836 54959664 55501068 56880560 59371080 63080488 
3004.655 67110896 70132128 69985024 67175440 65126092 65821616 68879920 
3018.155 73219376 77284352 79525552 79562920 77947808 76568608 75846872 
3031.654 75383560 75359080 74882984 73815280 71343008 67185168 61930664 
3045.153 56443068 51178084 47018520 44884216 44674360 45758156 47722160 
3058.652 49571244 49937488 48230612 44960680 41323236 38618180 37007556 
3072.152 35724020 34673824 33457798 31489790 28993586 26881806 25447502 
3085.651 24325954 23459880 23043084 22877438 22577404 22137126 22329486 
3099.150 22566774 22334756 22407946 22500924 22136670 21689732 21260378 
3112.649 20976328 20774820 20432904 20271394 20239774 20057754 20078282 
3126.149 20015032 20001728 20232842 20113936 20122552 20337888 20378294 
3139.648 20480946 20637234 20709844 20721926 20803812 20925668 20912424 
3153.147 20956134 20771116 20585536 20620578 20701292 20721794 20888248 
3166.646 21158536 21382642 21542442 21718230 21963100 22058070 21807444 
3180.146 21991612 22381710 22490830 22677838 23025320 23241902 23675070 
3193.645 24203750 24432064 24195814 24278614 24573368 24793632 25175108 
3207.144 25489076 25428962 25750054 25939742 26187260 26818258 26991606 
3220.644 27137090 27711580 28319854 28877588 29457164 30044292 30572354 
3234.143 31120100 31531424 31851634 31943720 31941250 31380560 30889796 
3247.642 31003376 31164460 31470630 31443354 31353600 31335406 31147324 
3261.141 30971554 31025406 30985284 31003214 31222744 31387552 31308036 
3274.641 31128898 31169198 31554588 31831854 31859770 32091610 32697904 
3288.140 33186686 33324070 33087946 33383862 33923060 34270436 34655084 
3301.639 34942576 35383904 35907040 36051228 36192548 36539096 36769464 
3315.138 37296300 37662284 37982196 38419940 38882000 39369092 39841972 
3328.638 40401148 41039656 41563668 41892344 42131620 42791928 43660272 
3342.137 44278960 44738132 45269372 45904580 46557688 47075564 47559804 
3355.636 48001176 48759020 49430512 49947312 50499868 50587908 50666252 
3369.135 51216692 51935376 52720976 53511440 54008700 54621400 55231860 
3382.635 55292220 54870080 55083720 55906200 56174216 55548696 55590988 
3396.134 55661460 55559048 55947076 55983888 55932100 56205796 56190920 
3409.633 55910664 55666540 55712612 56198924 56393488 55361572 54218644 
3423.133 54461232 54643496 54177300 53698708 53430504 53365288 53286548 
3436.632 53042876 53163140 53217828 53059880 53321024 51316052 49907728 
3450.131 50753280 51031332 51042176 50989352 51163108 50825512 49925036 
3463.630 49959600 50316100 50202204 50551220 51147664 51204264 51186748 
3477.130 52469928 53130552 51885100 51491880 52567456 52258096 51904300 
3490.629 52755084 53772784 53617616 53189308 54555436 55587552 52691196 
3504.128 51525248 54231452 53847764 51229032 51054252 51020256 50737540 
3517.627 50382936 51017384 50633596 48796092 48269668 45984100 44110192 
3531.127 44601016 45737840 44236848 42152972 43014416 44545788 44241084 
3544.626 40038360 36306032 38200080 39034280 35378816 35077900 36514188 
3558.125 36684760 36302264 38548024 40539832 31514976 22891456 26337202 
3571.625 29508310 29645062 29129344 28898134 28588252 30045450 33290982 
3585.124 32193668 21301502 20927282 27549062 27662790 24076258 24284612 
3598.623 24127458 22004008 24012202 28394486 26886314 21831572 23197968 
3612.122 22127300 21579918 25490904 19709366 13063820 17628758 24903678 
3625.622 30335328 19894870 7381025 13883605 15510730 16226200 17221234 
3639.121 17685388 18307702 22069648 28631200 24289498 6958324 2768871 
3652.620 13531522 16124081 10404110 12480287 14264628 14938838 17946670 
3666.119 23193882 20577670 11406281 19782354 18529574 2274443 5778579 
3679.619 8767505 12485906 16937822 21968294 17987132 6165605 4529856 9293174 
3695.046 11842448 13284001 14994154 10260859 8601919 14042715 19227500 
3708.546 19019946 8154389 2551064 8328787 13322622 14704821 15117580 
3722.045 13290956 12166593 10085168 14574178 21190004 20657366 14135517 
3735.544 3354106 6269982 14875687 22562506 16033456 9920632 18954934 
3749.043 14281139 1841364 4413400 13095594 14420076 9735111 9983408 15449876 
3764.471 14488796 14280872 12213971 7437519 10509972 14507934 17025874 
3777.970 13595757 9746990 13224293 12230420 10562368 12120925 13554091 
3791.470 15762482 18607770 16268468 16953534 18682302 7091302 10182529 
3804.969 14024969 6500652 9609451 16116196 21308750 16971988 13575252 
3818.468 18722526 7451061 6198672 13130324 12503046 14989762 16725967 
3831.968 15988223 18819750 18130406 10886671 7916162 8865371 8484732 
3845.467 12779674 20126462 27204180 23201756 0 1389022 9708489 16503643 
3860.895 18381726 14036490 11170798 17730518 14320293 8784637 10614014 
3874.394 9320946 16452048 18843268 12315916 14846151 13616833 9191468 
3887.893 16298510 15267305 8443862 12314935 19184776 20476168 16817096 
3901.392 13822190 7676877 6053243 10401687 13554875 15034542 17351076 
3914.892 17057656 13202436 12421118 14553858 14830582 11967550 14333742 
3928.391 16595582 14329115 11109348 12374057 14698800 16142067 16950296 
3941.890 13924996 13500569 15802711 14250924 12543039 13212657 14257624 
3955.389 14506920 14704045 14875806 14038384 13803001 14751222 15128587 
3968.889 15006226 14900228 14600579 14189834 14469677 14945583 14775030 
3982.388 14463923 14704234 15117276 15029456 14396565 14376134 14237486 
3995.887 14209636 14643043 14643043 
##END=
