##TITLE=3,4-methylenedioxy-alpha-cyclohexylaminopropiophenone HCl (Lot# 06481
##JCAMP-DX=5.01  $$ Nicolet v. 1
##DATATYPE=INFRARED SPECTRUM
##ORIGIN=SWGDRUG 15 May 2024
##OWNER=SWGDRUG
##LONGDATE=2022/08/08
##TIME=20:18:29
##SPECTROMETER/DATA SYSTEM=Nicolet iS10
##DATA PROCESSING=
Retrieved from a Library
Subtraction or Addition
Multiplied by a scalar
##COMMENTS=
Number of sample scans: 32
Collection length: 47.69 sec
Sample gain: 0.0
Number of background scans: 32
Background gain: 4.0
Sample spacing:  0.000
Number of scan points: 16672
Resolution points: 8192
Number of FFT points: 65536
Apodization: N-B strong;
Phase correction: Mertz;
Laser frequency: 15798.67 cm-1
Number of rejected sample scans: -1
Number of rejected background scans: -1
##XUNITS=1/CM
##YUNITS=ABSORBANCE
##FIRSTX=649.920715
##LASTX=3999.808838
##FIRSTY=0.090650
##MAXX=3999.808838
##MINX=649.920715
##MAXY=1.000000
##MINY=0.000000
##XFACTOR=1.000000
##YFACTOR=1.000000E-09
##NPOINTS=1738
##DELTAX=1.928548
##ZPD=8192
##XYDATA=(X++(Y..Y))
649.921 90650096 100810368 107122360 111407320 117224216 127768112 147315936 
663.420 169773392 176414704 143013376 79387536 59966704 49883756 42991028 
676.920 39153624 36914688 35441192 35320720 35663192 35884092 35947476 
690.420 36819412 38284668 40042896 41551480 43380884 45672512 48492532 
703.919 51894680 56441344 62479568 71791480 85621048 109751072 153109696 
717.419 194421376 197365440 182820880 139339088 83379168 61084608 60426964 
730.919 67293496 79678456 101954472 137884288 200218432 293827264 347095712 
744.419 287851808 203361936 166997648 182789856 259282464 389100352 
755.990 422121440 286102656 157429600 97723680 71082664 58867196 54363756 
769.489 53348580 53699628 55257984 57451148 60164852 63611872 68007472 
782.989 72892592 79291392 87714008 96476064 103785208 114811200 133917792 
796.489 164914368 199761456 232425600 281706304 349824736 394396064 
808.060 377528096 320547232 268316304 234564944 212233344 194848640 
819.631 185337408 187293200 203276352 236204224 291838336 378156800 
831.202 493842304 582293440 551604160 424864512 313608192 271565632 
842.773 260220080 220306832 175947152 151293136 141958272 145001632 
854.345 164315264 210138032 281656192 316923008 259759424 180962176 
865.916 151551824 175549296 230549680 252184000 230216096 242781408 
877.487 321000224 393817536 355292992 261149760 222552256 235587648 
889.058 223433328 166505856 122854688 110220704 120408040 158993968 
900.629 219848432 233271344 180727648 133453936 116121264 113889016 
912.201 119930680 132852376 151376608 178856096 224891872 301080448 
923.772 422005344 572694016 651756416 546522048 361419008 233357840 
935.343 169432896 139582352 127092272 126879368 143000544 178828928 
946.914 214547296 210686736 177103056 150641072 132048592 113883536 
958.485 101223312 96655904 99436888 107756760 116070440 117009816 113514936 
971.985 112985608 117323800 125246960 136389952 150794976 169719984 
983.556 194950880 230202720 280897792 350238656 413415712 409974720 
995.127 329707776 242136144 188676528 164439792 156264672 156258160 
1006.698 160456624 168515072 180426464 197023552 219029168 247721872 
1018.270 283151328 327171552 385389664 464853408 545742720 570376128 
1029.841 537093888 529301216 571736704 639133760 712518720 757877504 
1041.412 736993984 643312640 519787904 408894336 322071744 259315728 
1052.984 219000768 197289888 194037456 222511168 287784896 314379008 
1064.556 249224928 180186432 151965728 148664304 162138768 197543328 
1076.127 255555088 296049376 265361760 208811824 195622992 219367232 
1087.699 239136960 263244160 321477280 404355840 468149280 497673856 
1099.270 543584768 575688384 478371360 314973024 202291920 149236720 
1110.842 127753120 121886760 126427128 142174368 169859520 200293792 
1122.413 208034064 181337536 140638144 108608704 90397224 83091088 82708176 
1135.913 86145904 89965024 91572592 89730280 85999408 81623296 76728120 
1149.413 71729256 68397344 67286680 68340976 70982120 75356712 81655224 
1162.914 91782544 109969376 139732048 154769600 128217552 95523840 83756456 
1176.414 83411824 86792464 91600024 97812000 105598400 116605336 132915648 
1189.914 154713840 170522224 168117200 155023152 145233392 141282000 
1201.485 142019008 145553296 150951408 157415264 165408976 174505968 
1213.057 184821824 196334768 209659568 224993792 243318912 264744912 
1224.628 290239936 320406304 355906912 396266080 441924512 493639072 
1236.200 553392896 621106176 695002176 771453056 847260864 911808256 
1247.771 958485760 990763328 1000000000 973421440 909591424 806243392 
1259.343 668693184 527744224 423949952 355612192 296906080 234808384 
1270.915 182228880 149621664 135784336 136648288 147554448 148935936 
1282.486 135273840 125668392 132266016 154447968 192743584 237674960 
1294.058 258060400 232348944 185474656 146850672 123951576 114133816 
1305.629 116035240 128544080 154996032 200746704 267496640 310786752 
1317.201 302209216 299173792 326425952 345503904 355913952 325835872 
1328.772 238736928 171099600 159144464 193477376 237777472 228064048 
1340.344 163094800 116964744 97109048 97721072 109636136 120442416 118371128 
1353.844 108120424 113527560 143276272 194826864 246800352 247700624 
1365.415 209938560 170091920 142550656 133996200 137624384 158066384 
1376.987 170506816 155740528 142871936 149805872 169292256 185373568 
1388.558 186520848 175213728 155376848 130294176 117225584 117308352 
1400.130 122183256 136474016 147447056 159729680 178356656 201137120 
1411.702 227999680 263869760 308345024 366886720 454158720 535514240 
1423.273 603190336 645031296 635726720 567692608 484512224 454457184 
1434.845 468630592 550189760 663456640 779433408 868304704 917331520 
1446.416 922924864 841421824 721569856 635407360 618109056 632676288 
1457.988 516521152 405964416 338850208 281173696 238765056 225810928 
1469.559 219578432 208650464 201506624 191285712 164329712 148868240 
1481.131 145670768 159549360 183635520 213982272 255668016 291670944 
1492.702 275825248 225559552 209084320 329801216 463096288 456903072 
1504.274 369680896 194506464 65995104 53951868 46442904 43265356 37731360 
1517.774 30606044 33244558 20335964 19653090 18549546 14887152 16237754 
1531.274 20348758 12802588 12991526 22769174 24272370 8174331 8426046 
1544.774 6999623 12523941 15271298 14057543 17706388 20376916 28217868 
1558.274 20266424 8360393 22386714 30086426 36843704 39872532 27799452 
1571.774 27476118 32578316 24695212 18448124 23946936 26932958 29193484 
1585.275 32797408 38597148 45716156 55155736 67473096 84811712 111017072 
1598.775 143627504 175783616 199665696 204591776 181472816 139227968 
1610.346 105867552 91954344 89907240 81830424 79876792 91044824 97882792 
1623.846 98275248 98811624 81078040 62339264 56982448 57331132 44814280 
1637.346 41743180 50471024 57681548 66112256 71690144 59280240 66244848 
1650.847 81624576 72097328 71430528 91814536 110367448 128918824 146075072 
1664.347 177384736 218828656 280080480 389562432 511736384 643902912 
1675.918 749540032 710420672 558281600 427918688 273995520 168408064 
1687.490 143465632 111750952 91700448 87878216 71553328 56345240 43701460 
1700.990 20507730 22288832 17994156 10664299 12036523 13267827 16727515 
1714.490 16790836 10321124 0 6179173 9543404 8645272 9962423 12001432 
1729.919 12109764 15021334 3066318 2763248 9720224 7660399 8124035 9210284 
1745.347 11397247 13456413 11175252 8211407 12438892 17747892 16004771 
1758.848 18543460 16341116 10298703 12473724 13370411 12205695 12955347 
1772.348 3927394 3852420 7228834 10469733 9330103 9670375 10169339 9945774 
1787.776 13856802 17491186 11860623 8533612 10987647 12772110 11578230 
1801.276 7974106 8107340 9965643 11043468 10951059 8533686 8572342 10743557 
1816.705 11025755 11265681 12743231 14351056 11483457 10986267 11919924 
1830.205 6045493 8234403 11375961 11778976 11419379 14635725 18047416 
1843.705 13523208 11075892 13881839 15630541 18109166 18466060 17861476 
1857.206 16103225 14889577 13631717 13741621 15110448 14774930 7983487 
1870.706 7438237 10063637 11230180 11434941 11530671 11603587 12488468 
1884.206 13007855 15415084 16195934 14757380 17310654 19112918 18801084 
1897.706 20360810 21454764 22138626 21960686 22662570 22513542 20827982 
1911.206 19850830 20826514 22552188 22071170 21053634 24033200 22544842 
1924.706 23194154 24600420 24878102 23927372 22878126 21670096 21941410 
1938.206 22805522 24531710 21510798 20615648 21245636 22074074 22993752 
1951.706 24524656 25277012 26288400 27752280 29863878 29437248 29827456 
1965.207 29695316 28006286 27093394 27604496 26856632 26874314 26390920 
1978.707 27301180 26356004 25867686 25592096 26289320 27040788 28056580 
1992.207 25064460 24964354 25388374 26177354 26012736 25490652 24794330 
2005.707 27517808 30171422 31617272 31170774 31423266 30264728 29270748 
2019.207 28810570 29709368 30309950 31876114 33237252 35450492 36612440 
2032.707 38256296 38902816 40659156 42510736 44792768 45266756 44559468 
2046.207 41268856 37725516 34704868 32809806 30674016 29830654 28696484 
2059.707 28103512 27323326 26265556 24763026 24571442 23658106 23151154 
2073.206 22550308 22369658 21928002 21594056 20710312 20226602 19867742 
2086.705 20190934 20068980 20013514 20377150 21443858 22227162 23296638 
2100.204 24113296 25366774 25976372 26454616 26468872 26429404 25810434 
2113.704 25358206 24081638 23090270 22123578 21419598 20801236 20825566 
2127.203 20650620 20575548 20432588 21199466 21715684 22460696 22709070 
2140.702 23075140 23577404 24683172 24824362 24445566 23366588 23395882 
2154.201 23329066 23794170 25184192 28166428 27977112 28610028 28882854 
2167.701 28536722 27894784 27994316 28050792 28652980 27594358 27183936 
2181.200 26440412 27136074 28007706 28576136 28422926 28646644 28557372 
2194.699 29132202 29293926 29489252 29543908 30501672 31012702 31858810 
2208.198 32155544 32172542 32612740 33957384 35271940 36484604 36801232 
2221.698 37601480 38090380 38318160 38053052 38179712 38283104 38260692 
2235.197 37844832 37523060 37068772 37335476 37155108 36653900 36273096 
2248.696 36627536 36728636 36891520 36870648 36605508 36411436 36754136 
2262.196 36913704 37352784 37612516 37857016 38140212 38464364 38128596 
2275.695 37863020 37978888 38792988 39968176 41597608 43072168 44572892 
2289.194 45924436 47284872 48477264 49377996 49827424 50131276 50544560 
2302.693 51555548 53201864 55436332 57515456 58810960 58891860 59278408 
2316.193 61041404 64018032 67102336 68941728 67963768 65109400 61088484 
2329.692 56879524 54026100 53620560 53931076 54147308 53732936 52610196 
2343.191 50083156 47068384 49797220 56783264 60287564 60834616 61351208 
2356.690 61435612 60267388 59062576 58390512 58467532 58708524 58938864 
2370.190 59430184 60053408 60382580 61016192 61988072 63559644 65374428 
2383.689 67634064 70543360 74263440 78819416 84113968 89869640 95935872 
2397.188 101457944 105965320 109729984 113903848 119051456 124960520 
2408.759 130103480 134059144 138516496 145863008 157414656 172898752 
2420.330 189841264 203715232 209276080 204946032 194629456 183599904 
2431.901 172353104 157940352 139378576 119980480 103805136 92774888 86434048 
2445.400 83576832 82965328 84097208 86296960 89204248 92953696 97716320 
2458.899 102903992 108688008 115228008 122713520 131410672 141886992 
2470.470 154287536 168836576 185904384 206453056 230637664 256982512 
2482.041 282024288 300640512 306261216 294661888 268630944 237520720 
2493.612 210953616 193440832 182798352 172797840 158559424 140722672 
2505.182 123047408 108566176 97659848 89737616 84266904 80903208 78927496 
2518.682 78062640 77444248 76913456 76752104 77137696 78014216 79332504 
2532.181 80947464 82883600 84940152 87256776 89646152 92318200 95494192 
2545.680 99199336 103028968 106604960 109426048 111421952 112723000 
2557.251 113677328 114338856 114812216 115403296 116567416 118201392 
2568.822 119797040 120790800 121596384 122755904 124475080 126779496 
2580.393 130163384 134712496 140071936 145551376 150006016 152774608 
2591.963 154269616 155280992 156794496 159342144 163339792 168932496 
2603.534 176420720 185597584 195713232 205608448 214254448 220696656 
2615.105 224898704 227976736 231694016 237537376 246127696 257187456 
2626.676 269922304 282756256 294347200 305271360 318004096 333978400 
2638.247 352187072 370351584 386289600 398264416 405242112 407096992 
2649.817 404708128 400320128 395975072 390519424 380791744 365613728 
2661.388 346848192 327227040 308955456 294969312 289074688 292822176 
2672.959 303784608 316494944 325615232 328526688 325384768 317478592 
2684.530 306613472 295231072 285470240 277957696 271854880 265439424 
2696.101 257527296 248769776 240462624 232695840 224709184 216580656 
2707.671 210416672 208451696 211117728 217062000 224359760 230666736 
2719.242 233808992 233006256 228903520 222586384 215440960 208677696 
2730.813 203185008 199453712 197649920 197796880 199691168 202871488 
2742.384 206496160 209526352 211109584 210203408 206057088 199187536 
2753.955 191927888 186812416 185003824 186025408 188469008 190922736 
2765.525 192835264 194335536 195906240 198178256 201623264 206160240 
2777.096 211210976 215381840 216469440 212547488 204413312 195043664 
2788.667 186949104 181129248 177601632 176101248 176625088 178719904 
2800.238 181454128 184321760 187428000 190394224 192266320 192247648 
2811.809 191061472 190555232 192230784 196117536 200647456 203208144 
2823.379 201843376 196407328 188059760 178363696 168843968 160586272 
2834.950 154606208 152003840 153713696 160433024 172436048 190440624 
2846.521 217284256 251592464 281051264 291364704 278834816 252956800 
2858.092 228699888 213652544 206560176 202888896 198783584 192962192 
2869.663 186932304 181701232 176972928 173066624 170953376 171080656 
2881.233 173171776 176839104 181860240 187655888 193980944 201163776 
2892.804 209370912 218768144 229731280 242171280 257031920 275300768 
2904.375 295598688 314371552 329242976 340747360 349692896 353996064 
2915.946 351276384 343737152 337102368 335413408 339704992 350927584 
2927.517 369460064 389529280 401134752 397996608 377305344 339544480 
2939.087 294334368 254152752 223151120 198957072 180110240 166874240 
2950.658 158173920 151073120 143977712 137448336 131342096 124951936 
2962.229 118424896 112079096 106582280 102162816 99344504 98092104 98072176 
2975.728 100223808 106324968 117637416 129720448 131344272 119604816 
2987.299 104698728 95161792 90691584 87809656 84903072 81838976 79427904 
3000.798 79012344 80198288 80941648 79511840 76841864 73942344 71236840 
3014.298 68848992 66242644 63719152 61695360 60117060 58946004 58673804 
3027.797 59902736 61470932 62695572 62900984 60797332 56925964 52835244 
3041.296 49401248 46701416 44596276 42628700 40858212 39779988 39093544 
3054.795 38103236 37132064 36961852 37376808 38187236 39183048 40443776 
3068.295 41539180 41859720 41425032 41020260 40623664 40082560 39817828 
3081.794 40211792 40606576 39980216 38291860 36394808 34696884 33435498 
3095.293 32522074 32663062 32944728 32741378 32890360 33384692 33550736 
3108.792 33638772 33587252 33291582 32557622 31787564 31494714 31356864 
3122.292 30878230 30766876 30385244 29808906 29120028 27614488 26204084 
3135.791 25354608 24528410 23833792 23180094 22690966 22395698 22272096 
3149.290 22167454 21999940 21811112 21679780 21538470 21383588 21264914 
3162.790 21248876 21278814 21215094 21026326 20867452 20755216 20936916 
3176.289 20745092 20280646 20485630 20673812 20278630 20113650 20412964 
3189.788 20535916 20586506 20746686 20541782 19971940 19860656 20063298 
3203.287 20212578 20416060 20576422 20383514 20524108 20603776 20717398 
3216.787 21137326 20978132 20905728 21193696 21544330 21780668 21797346 
3230.286 21608510 21443050 21418678 21490000 21446322 21495310 21793870 
3243.785 21503070 21098062 21366992 21589764 21531040 21030268 20701608 
3257.284 20609176 20556552 20538914 20621202 20680200 21021110 21418102 
3270.784 21610520 21256044 20852508 20782358 21099010 21346242 21385988 
3284.283 21522266 21737352 21575452 21407442 21343486 21602826 21594048 
3297.782 21438026 21662646 21964366 22199278 22503144 22178828 21933134 
3311.281 22043010 22008536 22164958 22329446 22558326 22857862 23007898 
3324.781 23070902 23252610 23692246 24385984 25152264 25319650 25374074 
3338.280 25933046 26623448 26967482 26833242 26333482 25769998 25336662 
3351.779 25259650 24959822 24317322 24125536 24319104 24458552 24547224 
3365.279 24172312 23804356 23858810 24226554 24440654 24490522 24318340 
3378.778 24137114 24357358 24448498 24016444 24311624 25010592 24899258 
3392.277 23934028 24182112 24189864 24094236 24412482 24257914 24058000 
3405.776 24162126 24169358 24169376 24082714 24140344 24829386 25499292 
3419.276 24337084 22959148 23442566 24171104 24226660 24201252 24071646 
3432.775 24130882 24308650 24585118 25066566 25010184 24990378 25388720 
3446.274 22863618 22303040 23884642 24342940 24471748 24733798 25165178 
3459.773 25064702 24193250 24237194 24259762 24086762 24481628 24811532 
3473.273 24285162 23978732 25387102 25714150 23720606 23441526 24698056 
3486.772 24072664 23438184 24189938 24992920 24543308 24192238 26074978 
3500.271 26703930 23181594 22173806 25160856 24578196 22379498 22882994 
3513.771 23970336 24560552 24936858 26533000 26388986 24494884 23972086 
3527.270 21753178 20944462 22729448 24879750 23517860 22281502 24542830 
3540.769 27713582 27996480 22901000 19815660 23502416 24222482 20914194 
3554.268 22328916 24936638 25543226 26153034 30497220 32514974 19641046 
3567.768 11884437 18798362 23635774 24130878 23828124 23828218 23986944 
3581.267 27074268 32594108 30489310 16464582 18041902 26189170 25710118 
3594.766 22346118 23709732 23219498 20812084 25119770 31500454 29255488 
3608.265 23831122 26528080 24691100 25280662 29762078 21012762 14461665 
3621.765 22421570 33078682 39573180 22806296 10000596 19693576 21546950 
3635.264 23353490 25008132 26114600 28245180 35779904 44375060 35322468 
3648.763 9629814 9339220 25462230 25991528 18793422 22744184 25878782 
3662.262 28039054 33318170 40348600 34216848 23173676 35995836 29556378 
3675.762 9589704 16671142 21700698 27345286 33761192 40013212 32057844 
3689.261 14855699 14883992 22850802 26856642 30115448 31958796 24494614 
3702.760 23587728 31819802 38813376 36865400 19637200 13900049 23421916 
3716.260 30199182 31726286 31104886 27838754 25289494 22857498 31013698 
3729.759 40130308 38962556 27284014 12568999 19726628 32025558 39929796 
3743.258 28105734 24039208 36365080 26202004 8863466 15939016 27492148 
3756.757 27276878 20026622 22503254 30122122 28227958 28104860 23449466 
3770.257 17788248 23536852 29516696 32322034 26128692 22363762 27141126 
3783.756 24549506 22853010 25167928 27127408 30666694 34532084 31547460 
3797.255 33796816 33672192 17066686 23515472 25706974 16093861 22875092 
3810.754 32519956 39024016 32263662 29960566 33729588 15232837 17289390 
3824.254 26276644 25418048 29900576 32063186 32012920 35878932 33174832 
3837.753 21822776 18209536 19917950 20415698 27963610 38788776 47883204 
3851.252 37520724 5211071 11133641 23895598 33537372 35094520 27926930 
3864.751 26155872 35483912 27710068 20813570 22138684 22223148 33436124 
3878.251 34816388 26367960 29976094 25920582 22562426 32899488 29410270 
3891.750 21333160 28529472 37675612 38185276 32966100 27667236 17998646 
3905.249 17680520 24804568 28990006 31232360 34643200 33351452 27847760 
3918.749 27461334 30669258 30063602 26611208 30813612 32951762 28529556 
3932.248 24424814 26913024 30042728 32217440 32765218 28501490 29004158 
3945.747 31612318 28515552 26693366 28173808 29637770 29883830 30127038 
3959.246 30045396 28769548 28977682 30514756 30857838 30599846 30393134 
3972.746 29887306 29246390 29703920 30455380 30314708 30003352 30234404 
3986.245 30625402 30480036 29808062 29862930 29552754 29602056 30029848 
3999.744 30029848 
##END=
